# dimensionless total [l(l+1)/2pi] C_l's
# for l=2 to 3000, i.e. number of multipoles equal to 2999
#
# -> if you prefer output in CAMB/HealPix/LensPix units/order, set 'format' to 'camb' in input file
# -> if you don't want to see such a header, set 'headers' to 'no' in input file
# -> for CMB lensing (phi), these are C_l^phi-phi for the lensing potential.
#    Remember the conversion factors:
#    C_l^dd (deflection) = l(l+1) C_l^phi-phi
#    C_l^gg (shear/convergence) = 1/4 (l(l+1))^2 C_l^phi-phi
#
# 1:l     2:TT                     3:phiphi                 4:TPhi               
    2       1.366750795785e-10       8.090768614167e-09       4.412120170051e-10 
    3       1.295173812126e-10       4.988207077870e-09       3.123988036442e-10 
    4       1.227285279176e-10       3.461818469079e-09       2.360536359741e-10 
    5       1.176655819997e-10       2.576911776827e-09       1.860589505623e-10 
    6       1.142234912374e-10       2.007661037036e-09       1.510608068706e-10 
    7       1.120117771488e-10       1.616466611282e-09       1.253953235684e-10 
    8       1.107686053416e-10       1.333753243178e-09       1.059699190494e-10 
    9       1.102611620977e-10       1.121397069385e-09       9.095247206494e-11 
   10       1.102391033777e-10       9.572142991488e-10       7.909465529103e-11 
   11       1.106660289547e-10       8.070913433785e-10       6.990408830405e-11 
   12       1.113805837498e-10       7.042948537956e-10       6.168866359061e-11 
   13       1.123260737586e-10       6.199858136460e-10       5.504204198974e-11 
   14       1.134924587336e-10       5.499094860602e-10       4.931702525841e-11 
   15       1.148352508171e-10       4.909767262603e-10       4.447918957830e-11 
   16       1.162770608299e-10       4.409150439055e-10       4.030404398629e-11 
   17       1.178553159765e-10       3.980089413796e-10       3.665772511532e-11 
   18       1.195134459219e-10       3.608016217959e-10       3.349990315188e-11 
   19       1.212646192951e-10       3.286928971923e-10       3.077733677554e-11 
   20       1.231007354314e-10       3.004371126653e-10       2.835566891528e-11 
   21       1.250147720717e-10       2.755844874816e-10       2.618768994739e-11 
   22       1.269716528284e-10       2.535347244271e-10       2.422506703499e-11 
   23       1.289852402338e-10       2.339805890527e-10       2.247133319890e-11 
   24       1.310618118607e-10       2.164660370073e-10       2.092046327444e-11 
   25       1.331934672851e-10       2.007820685607e-10       1.953434055799e-11 
   26       1.353550244334e-10       1.866418540402e-10       1.825537560516e-11 
   27       1.375529116153e-10       1.738735297571e-10       1.708373508706e-11 
   28       1.397931601852e-10       1.622547523009e-10       1.602784188369e-11 
   29       1.420828446551e-10       1.517247745239e-10       1.508217096601e-11 
   30       1.444163940267e-10       1.421691050666e-10       1.422550743037e-11 
   31       1.467778574182e-10       1.333910923467e-10       1.342883427871e-11 
   32       1.491715127723e-10       1.253444052255e-10       1.268756624592e-11 
   33       1.516001198554e-10       1.179712191553e-10       1.199989877364e-11 
   34       1.540589799731e-10       1.111672497819e-10       1.136038370604e-11 
   35       1.565473754039e-10       1.048969597169e-10       1.076881879644e-11 
   36       1.590593328439e-10       9.910932651858e-11       1.022369239101e-11 
   37       1.615852013648e-10       9.372819810990e-11       9.720781060000e-12 
   38       1.641307398351e-10       8.873923058423e-11       9.257710791450e-12 
   39       1.667032162853e-10       8.412621318321e-11       8.830367712603e-12 
   40       1.693056648041e-10       7.984463793044e-11       8.431324320505e-12 
   41       1.719379880317e-10       7.583710731356e-11       8.052254543979e-12 
   42       1.746018875563e-10       7.209151551318e-11       7.692786083624e-12 
   43       1.772967044348e-10       6.859765804622e-11       7.354066562464e-12 
   44       1.800175810073e-10       6.532977988661e-11       7.036233332082e-12 
   45       1.827581750464e-10       6.225570667829e-11       6.738645346736e-12 
   46       1.855206797207e-10       5.937040669598e-11       6.460874193756e-12 
   47       1.883081423912e-10       5.667035984964e-11       6.201855773609e-12 
   48       1.911214222084e-10       5.414343891106e-11       5.959524003716e-12 
   49       1.939589825354e-10       5.176827043182e-11       5.730739092339e-12 
   50       1.968184178710e-10       4.952063597015e-11       5.512181491928e-12 
   51       1.997020048156e-10       4.739620683440e-11       5.303486228788e-12 
   52       2.026122990414e-10       4.539287573622e-11       5.104835368787e-12 
   53       2.055504095165e-10       4.350395536753e-11       4.916041037703e-12 
   54       2.085158725505e-10       4.171787062713e-11       4.736519138853e-12 
   55       2.115075714636e-10       4.002166634674e-11       4.565535719742e-12 
   56       2.145270516813e-10       3.841325597925e-11       4.403077952853e-12 
   57       2.175758085620e-10       3.689167665830e-11       4.249153489549e-12 
   58       2.206542305667e-10       3.545338463942e-11       4.103521449247e-12 
   59       2.237615140439e-10       3.409209618244e-11       3.965676759739e-12 
   60       2.268955780138e-10       3.279862843393e-11       3.834834497504e-12 
   61       2.300541542592e-10       3.156343568213e-11       3.710150557753e-12 
   62       2.332385363062e-10       3.038524333995e-11       3.591476972028e-12 
   63       2.364505245553e-10       2.926407841493e-11       3.478749112926e-12 
   64       2.396912782565e-10       2.819867301094e-11       3.371756325364e-12 
   65       2.429612675847e-10       2.718639073272e-11       3.270133765460e-12 
   66       2.462602257162e-10       2.622315309047e-11       3.173354239413e-12 
   67       2.495871009045e-10       2.530336590441e-11       3.080720042383e-12 
   68       2.529407627476e-10       2.442140555390e-11       2.991543969318e-12 
   69       2.563223942936e-10       2.357659193807e-11       2.905753180713e-12 
   70       2.597335007730e-10       2.276909558770e-11       2.823393597155e-12 
   71       2.631751701723e-10       2.199843387984e-11       2.744448290276e-12 
   72       2.666480445989e-10       2.126343733606e-11       2.668834159788e-12 
   73       2.701522916455e-10       2.056221592076e-11       2.596398610520e-12 
   74       2.736875757556e-10       1.989212533947e-11       2.526916229458e-12 
   75       2.772530295876e-10       1.924973333710e-11       2.460085462782e-12 
   76       2.808477568118e-10       1.863166742052e-11       2.395606488783e-12 
   77       2.844725096486e-10       1.803741099263e-11       2.333438576416e-12 
   78       2.881282666347e-10       1.746695824656e-11       2.273583838207e-12 
   79       2.918157108781e-10       1.691996260106e-11       2.216008566622e-12 
   80       2.955352123212e-10       1.639572107307e-11       2.160641576085e-12 
   81       2.992868100029e-10       1.589315865037e-11       2.107372545010e-12 
   82       3.030701943205e-10       1.541081266415e-11       2.056050357824e-12 
   83       3.068846892922e-10       1.494681716163e-11       2.006481446989e-12 
   84       3.107295849163e-10       1.449935385502e-11       1.958478388413e-12 
   85       3.146052364090e-10       1.406812509481e-11       1.912018575679e-12 
   86       3.185121155225e-10       1.365309756755e-11       1.867108933132e-12 
   87       3.224504649721e-10       1.325404975955e-11       1.823737199903e-12 
   88       3.264202865821e-10       1.287056417112e-11       1.781871116533e-12 
   89       3.304213294323e-10       1.250201953082e-11       1.741457611589e-12 
   90       3.344530780037e-10       1.214758300963e-11       1.702421988286e-12 
   91       3.385147403255e-10       1.180620243522e-11       1.664667111108e-12 
   92       3.426052361206e-10       1.147659850615e-11       1.628072592424e-12 
   93       3.467235388797e-10       1.115756679278e-11       1.592524984867e-12 
   94       3.508697866796e-10       1.084895260803e-11       1.558015319551e-12 
   95       3.550443172928e-10       1.055080904436e-11       1.524554802006e-12 
   96       3.592473222445e-10       1.026309676524e-11       1.492144730956e-12 
   97       3.634788398173e-10       9.985680471824e-12       1.460776110550e-12 
   98       3.677387480556e-10       9.718325369507e-12       1.430429262590e-12 
   99       3.720267577703e-10       9.460693634573e-12       1.401073438766e-12 
  100       3.763424055429e-10       9.212340880799e-12       1.372666432883e-12 
  101       3.806850467309e-10       8.972712626078e-12       1.345154193094e-12 
  102       3.850538484713e-10       8.741140759031e-12       1.318470434130e-12 
  103       3.894477826860e-10       8.516840005620e-12       1.292536249530e-12 
  104       3.938658496052e-10       8.299085120597e-12       1.267278604526e-12 
  105       3.983077977941e-10       8.087777332410e-12       1.242689494951e-12 
  106       4.027734888030e-10       7.882948185722e-12       1.218774094124e-12 
  107       4.072626709246e-10       7.684584120844e-12       1.195532407718e-12 
  108       4.117749747323e-10       7.492624926338e-12       1.172959093464e-12 
  109       4.163099086173e-10       7.306962191619e-12       1.151043280870e-12 
  110       4.208668543268e-10       7.127437759560e-12       1.129768390923e-12 
  111       4.254450625018e-10       6.953842179092e-12       1.109111955805e-12 
  112       4.300436482143e-10       6.785913157810e-12       1.089045438601e-12 
  113       4.346615865053e-10       6.623334014575e-12       1.069534053010e-12 
  114       4.392977079228e-10       6.465732132115e-12       1.050536583058e-12 
  115       4.439506940591e-10       6.312677409632e-12       1.032005202803e-12 
  116       4.486192740541e-10       6.163776107672e-12       1.013896081570e-12 
  117       4.533028507490e-10       6.018968635110e-12       9.962030478665e-13 
  118       4.580009426359e-10       5.878265230194e-12       9.789276988601e-13 
  119       4.627129870480e-10       5.741653111525e-12       9.620688970743e-13 
  120       4.674383374744e-10       5.609095774097e-12       9.456226854643e-13 
  121       4.721762608742e-10       5.480532285330e-12       9.295822024897e-13 
  122       4.769259349917e-10       5.355876581104e-12       9.139375971875e-13 
  123       4.816864456707e-10       5.235016761801e-12       8.986759442453e-13 
  124       4.864567841688e-10       5.117814388334e-12       8.837811590746e-13 
  125       4.912358444729e-10       5.004103778190e-12       8.692339128840e-13 
  126       4.960224206127e-10       4.893691301460e-12       8.550115477521e-13 
  127       5.008152039762e-10       4.786354676877e-12       8.410879917009e-13 
  128       5.056127806239e-10       4.681842267854e-12       8.274336737690e-13 
  129       5.104137767351e-10       4.579926912520e-12       8.140226429862e-13 
  130       5.152173186915e-10       4.480575585670e-12       8.008549886594e-13 
  131       5.200226186252e-10       4.383797105235e-12       7.879367305745e-13 
  132       5.248288292025e-10       4.289588956003e-12       7.752728025162e-13 
  133       5.296350419977e-10       4.197936975887e-12       7.628670188894e-13 
  134       5.344402858682e-10       4.108815042179e-12       7.507220413411e-13 
  135       5.392435253289e-10       4.022184757816e-12       7.388393453818e-13 
  136       5.440436589267e-10       3.937995137642e-12       7.272191870075e-13 
  137       5.488395176153e-10       3.856182294665e-12       7.158605693209e-13 
  138       5.536298631296e-10       3.776669126323e-12       7.047612091535e-13 
  139       5.584133863603e-10       3.699365000742e-12       6.939175036870e-13 
  140       5.631887057285e-10       3.624165443001e-12       6.833244970750e-13 
  141       5.679543655605e-10       3.550951821389e-12       6.729758470650e-13 
  142       5.727088344619e-10       3.479591033670e-12       6.628637916193e-13 
  143       5.774505036927e-10       3.409935193343e-12       6.529791155376e-13 
  144       5.821778224672e-10       3.341852497231e-12       6.433130332385e-13 
  145       5.868897223197e-10       3.275323920315e-12       6.338631167706e-13 
  146       5.915852316806e-10       3.210355501693e-12       6.246278914943e-13 
  147       5.962633418764e-10       3.146947885903e-12       6.156049502312e-13 
  148       6.009230062911e-10       3.085096188388e-12       6.067909308980e-13 
  149       6.055631395280e-10       3.024789860961e-12       5.981814941409e-13 
  150       6.101826165709e-10       2.966012557269e-12       5.897713009695e-13 
  151       6.147802719457e-10       2.908741998258e-12       5.815539903910e-13 
  152       6.193548988819e-10       2.852949837635e-12       5.735221570441e-13 
  153       6.239052484744e-10       2.798601527338e-12       5.656673288333e-13 
  154       6.284300288445e-10       2.745656182992e-12       5.579799445626e-13 
  155       6.329279043018e-10       2.694066449383e-12       5.504493315702e-13 
  156       6.373974945055e-10       2.643778365915e-12       5.430636833620e-13 
  157       6.418373736261e-10       2.594731232076e-12       5.358100372458e-13 
  158       6.462460695068e-10       2.546857472907e-12       5.286742519658e-13 
  159       6.506220628248e-10       2.500082504460e-12       5.216409853362e-13 
  160       6.549637862535e-10       2.454324599267e-12       5.146936718752e-13 
  161       6.592697320993e-10       2.409511558009e-12       5.078181841752e-13 
  162       6.635387876736e-10       2.365632663789e-12       5.010142278274e-13 
  163       6.677699281144e-10       2.322691086584e-12       4.942849161272e-13 
  164       6.719621102411e-10       2.280687433505e-12       4.876331715946e-13 
  165       6.761142722149e-10       2.239619691588e-12       4.810617205569e-13 
  166       6.802253331994e-10       2.199483170579e-12       4.745730877313e-13 
  167       6.842941930216e-10       2.160270445719e-12       4.681695908073e-13 
  168       6.883197318318e-10       2.121971300540e-12       4.618533350290e-13 
  169       6.923008097647e-10       2.084572669643e-12       4.556262077779e-13 
  170       6.962362665998e-10       2.048058581493e-12       4.494898731551e-13 
  171       7.001249214222e-10       2.012410101202e-12       4.434457665641e-13 
  172       7.039655722829e-10       1.977605273319e-12       4.374950892930e-13 
  173       7.077569958597e-10       1.943619064619e-12       4.316388030969e-13 
  174       7.114979471173e-10       1.910423306885e-12       4.258776247809e-13 
  175       7.151871589688e-10       1.877986639704e-12       4.202120207820e-13 
  176       7.188233419352e-10       1.846274453247e-12       4.146422017519e-13 
  177       7.224051838069e-10       1.815248831060e-12       4.091681171394e-13 
  178       7.259313493037e-10       1.784868492855e-12       4.037894497729e-13 
  179       7.294004797358e-10       1.755088737291e-12       3.985056104429e-13 
  180       7.328112820133e-10       1.725870358278e-12       3.933158944445e-13 
  181       7.361628042966e-10       1.697207305950e-12       3.882199764366e-13 
  182       7.394541816561e-10       1.669101119665e-12       3.832174446064e-13 
  183       7.426845486822e-10       1.641552128092e-12       3.783076374576e-13 
  184       7.458530394747e-10       1.614559425047e-12       3.734896389895e-13 
  185       7.489587876326e-10       1.588120845337e-12       3.687622738758e-13 
  186       7.520009262437e-10       1.562232940596e-12       3.641241026438e-13 
  187       7.549785878744e-10       1.536890955126e-12       3.595734168537e-13 
  188       7.578909045594e-10       1.512088801733e-12       3.551082342769e-13 
  189       7.607370077913e-10       1.487819037573e-12       3.507262940757e-13 
  190       7.635160285104e-10       1.464072839982e-12       3.464250519820e-13 
  191       7.662270970943e-10       1.440839982325e-12       3.422016754763e-13 
  192       7.688693433475e-10       1.418108809829e-12       3.380530389670e-13 
  193       7.714418964914e-10       1.395866215422e-12       3.339757189691e-13 
  194       7.739438851536e-10       1.374097615577e-12       3.299659892833e-13 
  195       7.763744373581e-10       1.352786926148e-12       3.260198161751e-13 
  196       7.787326805144e-10       1.331916538209e-12       3.221328535539e-13 
  197       7.810177414076e-10       1.311467293895e-12       3.183004381517e-13 
  198       7.832287461880e-10       1.291418462240e-12       3.145175847025e-13 
  199       7.853648203606e-10       1.271747715016e-12       3.107789811212e-13 
  200       7.874250887752e-10       1.252431102574e-12       3.070789836824e-13 
  201       7.894087360468e-10       1.233447725307e-12       3.034127819989e-13 
  202       7.913151926498e-10       1.214794170135e-12       2.997799967175e-13 
  203       7.931439621123e-10       1.196471059843e-12       2.961813298121e-13 
  204       7.948945619473e-10       1.178478439921e-12       2.926174165284e-13 
  205       7.965665238205e-10       1.160815768286e-12       2.890888240194e-13 
  206       7.981593937191e-10       1.143481904993e-12       2.855960499825e-13 
  207       7.996727321200e-10       1.126475101961e-12       2.821395212955e-13 
  208       8.011061141578e-10       1.109792992683e-12       2.787195926531e-13 
  209       8.024591297933e-10       1.093432581944e-12       2.753365452031e-13 
  210       8.037313839819e-10       1.077390235544e-12       2.719905851832e-13 
  211       8.049224968416e-10       1.061661670008e-12       2.686818425571e-13 
  212       8.060321038217e-10       1.046241942309e-12       2.654103696507e-13 
  213       8.070598558706e-10       1.031125439582e-12       2.621761397888e-13 
  214       8.080054196047e-10       1.016305868843e-12       2.589790459316e-13 
  215       8.088684774761e-10       1.001776246703e-12       2.558188993107e-13 
  216       8.096487279413e-10       9.875288890920e-13       2.526954280655e-13 
  217       8.103458856293e-10       9.735554009688e-13       2.496082758802e-13 
  218       8.109596815101e-10       9.598466660435e-13       2.465570006192e-13 
  219       8.114898630626e-10       9.463928364922e-13       2.435410729645e-13 
  220       8.119361944434e-10       9.331833226756e-13       2.405598750513e-13 
  221       8.122984566547e-10       9.202067828553e-13       2.376126991048e-13 
  222       8.125764477129e-10       9.074511129120e-13       2.346987460764e-13 
  223       8.127699828166e-10       8.949034360622e-13       2.318171242803e-13 
  224       8.128789214138e-10       8.825525836494e-13       2.289670995927e-13 
  225       8.129032499875e-10       8.703967360163e-13       2.261488667461e-13 
  226       8.128430049191e-10       8.584362530539e-13       2.233628249916e-13 
  227       8.126982462992e-10       8.466712229640e-13       2.206093302332e-13 
  228       8.124690581600e-10       8.351014579067e-13       2.178886942636e-13 
  229       8.121555487076e-10       8.237264896493e-13       2.152011839991e-13 
  230       8.117578505541e-10       8.125455652147e-13       2.125470207155e-13 
  231       8.112761209505e-10       8.015576425299e-13       2.099263792826e-13 
  232       8.107105420185e-10       7.907613860742e-13       2.073393874004e-13 
  233       8.100613209831e-10       7.801551625277e-13       2.047861248340e-13 
  234       8.093286904049e-10       7.697370364199e-13       2.022666226490e-13 
  235       8.085129084125e-10       7.595047657779e-13       1.997808624468e-13 
  236       8.076142589347e-10       7.494557977751e-13       1.973287756001e-13 
  237       8.066330519329e-10       7.395872643792e-13       1.949102424882e-13 
