# dimensionless total [l(l+1)/2pi] C_l's
# for l=2 to 3000, i.e. number of multipoles equal to 2999
#
# -> if you prefer output in CAMB/HealPix/LensPix units/order, set 'format' to 'camb' in input file
# -> if you don't want to see such a header, set 'headers' to 'no' in input file
# -> for CMB lensing (phi), these are C_l^phi-phi for the lensing potential.
#    Remember the conversion factors:
#    C_l^dd (deflection) = l(l+1) C_l^phi-phi
#    C_l^gg (shear/convergence) = 1/4 (l(l+1))^2 C_l^phi-phi
#
# 1:l     2:TT                     3:phiphi                 4:TPhi               
    2       1.083643250535e-10       9.590680169478e-09       1.730943979795e-10 
    3       1.071132339641e-10       5.929948912018e-09       1.371269868297e-10 
    4       1.049340640609e-10       4.121060428931e-09       1.099948570150e-10 
    5       1.031901776859e-10       3.073603220607e-09       9.006013871345e-11 
    6       1.021203524218e-10       2.396429626348e-09       7.506168584470e-11 
    7       1.016341657476e-10       1.928895347650e-09       6.348504666011e-11 
    8       1.016316490096e-10       1.591854239190e-09       5.447211340122e-11 
    9       1.020645431071e-10       1.340010520016e-09       4.739701652323e-11 
   10       1.027593087690e-10       1.145599046080e-09       4.172028227209e-11 
   11       1.036802781082e-10       9.487240858720e-10       3.737103965639e-11 
   12       1.048091166623e-10       8.278801879979e-10       3.332326144945e-11 
   13       1.060474960420e-10       7.288396033040e-10       2.989882025062e-11 
   14       1.074120445165e-10       6.465726622723e-10       2.716024964995e-11 
   15       1.089062313018e-10       5.774321924043e-10       2.461347563694e-11 
   16       1.104456244617e-10       5.187227333230e-10       2.243428777300e-11 
   17       1.120435525731e-10       4.684220813889e-10       2.054769618405e-11 
   18       1.137039301965e-10       4.248085073882e-10       1.890844057192e-11 
   19       1.154420524990e-10       3.871915686545e-10       1.748554332193e-11 
   20       1.172294002351e-10       3.540900706849e-10       1.619791084850e-11 
   21       1.190600023802e-10       3.249745396659e-10       1.503595076458e-11 
   22       1.209104116283e-10       2.991444732439e-10       1.399561262013e-11 
   23       1.228006053434e-10       2.762388242521e-10       1.306909563147e-11 
   24       1.247408431641e-10       2.557205763150e-10       1.223411533053e-11 
   25       1.267136807835e-10       2.373446731901e-10       1.147117518967e-11 
   26       1.286844793892e-10       2.207754066629e-10       1.075898894431e-11 
   27       1.306741789196e-10       2.058116232420e-10       1.011233010750e-11 
   28       1.327093697544e-10       1.921927894733e-10       9.548822344772e-12 
   29       1.347934321121e-10       1.798477480510e-10       9.054588579596e-12 
   30       1.369079885208e-10       1.686421324909e-10       8.595888656043e-12 
   31       1.390251797046e-10       1.583451798078e-10       8.137067415653e-12 
   32       1.411515766411e-10       1.489029526214e-10       7.688291256773e-12 
   33       1.432983763813e-10       1.402481879091e-10       7.275385092440e-12 
   34       1.454704706226e-10       1.322590778323e-10       6.920194913558e-12 
   35       1.476716269101e-10       1.248941911712e-10       6.614708950966e-12 
   36       1.498995083452e-10       1.180937912073e-10       6.337198253022e-12 
   37       1.521472829614e-10       1.117686201785e-10       6.065015169667e-12 
   38       1.544169390494e-10       1.059020591644e-10       5.797138585409e-12 
   39       1.567092020747e-10       1.004752996361e-10       5.538703808317e-12 
   40       1.590192377272e-10       9.543628199291e-11       5.294933174909e-12 
   41       1.613400766941e-10       9.071778540302e-11       5.070061929798e-12 
   42       1.636756053513e-10       8.630574953640e-11       4.863759027849e-12 
   43       1.660308408852e-10       8.218831385879e-11       4.673496582424e-12 
   44       1.684080073213e-10       7.833531824828e-11       4.495400199577e-12 
   45       1.708074102886e-10       7.470904794102e-11       4.325361775028e-12 
   46       1.732310752502e-10       7.130373039359e-11       4.163007010201e-12 
   47       1.756796901660e-10       6.811536948257e-11       4.008746264786e-12 
   48       1.781513028105e-10       6.512983563814e-11       3.862638003691e-12 
   49       1.806410903767e-10       6.232211238174e-11       3.724359940565e-12 
   50       1.831437098461e-10       5.966382363631e-11       3.593371160091e-12 
   51       1.856616357306e-10       5.714997242898e-11       3.469517311026e-12 
   52       1.881986872642e-10       5.477815770112e-11       3.352539805780e-12 
   53       1.907575390802e-10       5.254057273448e-11       3.241879801351e-12 
   54       1.933396122639e-10       5.042364137227e-11       3.136658330085e-12 
   55       1.959455168664e-10       4.841215545999e-11       3.035940512980e-12 
   56       1.985767577651e-10       4.650372417136e-11       2.939650580274e-12 
   57       2.012342617456e-10       4.469727701782e-11       2.847849359082e-12 
   58       2.039177776113e-10       4.298869281487e-11       2.760461496904e-12 
   59       2.066257887210e-10       4.137061127536e-11       2.677266660535e-12 
   60       2.093554255274e-10       3.983224460278e-11       2.597890734979e-12 
   61       2.121037605581e-10       3.836237255594e-11       2.521923033964e-12 
   62       2.148722308903e-10       3.695953946543e-11       2.449318585904e-12 
   63       2.176630576626e-10       3.562382213231e-11       2.380070938594e-12 
   64       2.204779084939e-10       3.435376266086e-11       2.314089407909e-12 
   65       2.233178538846e-10       3.314628106104e-11       2.251194274972e-12 
   66       2.261833236192e-10       3.199658785083e-11       2.191111983318e-12 
   67       2.290740631684e-10       3.089809665873e-11       2.133470336055e-12 
   68       2.319896612285e-10       2.984418391472e-11       2.077898719385e-12 
   69       2.349313539240e-10       2.883407732763e-11       2.024363090913e-12 
   70       2.379005095427e-10       2.786800904567e-11       1.972890552636e-12 
   71       2.408980612727e-10       2.694543470059e-11       1.923468251570e-12 
   72       2.439244782116e-10       2.606499325028e-11       1.876041263009e-12 
   73       2.469797363759e-10       2.522446682127e-11       1.830510473784e-12 
   74       2.500632897098e-10       2.442074055127e-11       1.786730465523e-12 
   75       2.531740410946e-10       2.364976243169e-11       1.744507397916e-12 
   76       2.563108835229e-10       2.290754990581e-11       1.703649859805e-12 
   77       2.594745016364e-10       2.219351034775e-11       1.664136807088e-12 
   78       2.626658475632e-10       2.150765594397e-11       1.625976545691e-12 
   79       2.658855828774e-10       2.084959226404e-11       1.589155466622e-12 
   80       2.691340613004e-10       2.021849956767e-11       1.553637015377e-12 
   81       2.724113114010e-10       1.961311411188e-11       1.519360661349e-12 
   82       2.757170192970e-10       1.903170945805e-11       1.486240867233e-12 
   83       2.790505113558e-10       1.847207777907e-11       1.454166058443e-12 
   84       2.824111168378e-10       1.793206716273e-11       1.423027624820e-12 
   85       2.857993627954e-10       1.741133681177e-11       1.392814707399e-12 
   86       2.892159464671e-10       1.690985989922e-11       1.363533308806e-12 
   87       2.926613621942e-10       1.642738423246e-11       1.335177139978e-12 
   88       2.961358905072e-10       1.596342290484e-11       1.307727094312e-12 
   89       2.996395872127e-10       1.551724494720e-11       1.281150721826e-12 
   90       3.031722724791e-10       1.508786597952e-11       1.255401703305e-12 
   91       3.067335199239e-10       1.467403886247e-11       1.230419324459e-12 
   92       3.103226456993e-10       1.427424434898e-11       1.206127950075e-12 
   93       3.139389892080e-10       1.388705210677e-11       1.182457006898e-12 
   94       3.175828272474e-10       1.351228620234e-11       1.159405512340e-12 
   95       3.212545778141e-10       1.315001843720e-11       1.136986323812e-12 
   96       3.249545139082e-10       1.280020938826e-11       1.115206253697e-12 
   97       3.286827566222e-10       1.246270414347e-11       1.094065825015e-12 
   98       3.324392682314e-10       1.213722803739e-11       1.073559027102e-12 
   99       3.362238452829e-10       1.182338238680e-11       1.053673071283e-12 
  100       3.400361116852e-10       1.152064022634e-11       1.034388146541e-12 
  101       3.438755117982e-10       1.122834204406e-11       1.015677175197e-12 
  102       3.477413035224e-10       1.094569151707e-11       9.975055685793e-13 
  103       3.516325513885e-10       1.067175124711e-11       9.798309826961e-13 
  104       3.555483615336e-10       1.040565565328e-11       9.626134637886e-13 
  105       3.594886376635e-10       1.014729158775e-11       9.458479720767e-13 
  106       3.634534148021e-10       9.896702139263e-12       9.295358164548e-13 
  107       3.674426223234e-10       9.653875830861e-12       9.136745283639e-13 
  108       3.714560796985e-10       9.418744741826e-12       8.982577316405e-13 
  109       3.754934922441e-10       9.191182629628e-12       8.832750123636e-13 
  110       3.795544468696e-10       8.971003051868e-12       8.687117887028e-13 
  111       3.836384078248e-10       8.757957488224e-12       8.545491807664e-13 
  112       3.877447124478e-10       8.551733462402e-12       8.407638804490e-13 
  113       3.918725669127e-10       8.351952664074e-12       8.273280212797e-13 
  114       3.960210419770e-10       8.158169070830e-12       8.142090482692e-13 
  115       4.001890687295e-10       7.969867070117e-12       8.013695877587e-13 
  116       4.043756200585e-10       7.786574752482e-12       7.887761971687e-13 
  117       4.085802891789e-10       7.608223433062e-12       7.764270993670e-13 
  118       4.128027737853e-10       7.434828517885e-12       7.643275915663e-13 
  119       4.170426940430e-10       7.266377393345e-12       7.524814160625e-13 
  120       4.212995899782e-10       7.102828566463e-12       7.408907085954e-13 
  121       4.255729188670e-10       6.944110805149e-12       7.295559467109e-13 
  122       4.298620526261e-10       6.790122278454e-12       7.184758981225e-13 
  123       4.341662752016e-10       6.640729696839e-12       7.076475690727e-13 
  124       4.384847799596e-10       6.495767452428e-12       6.970661526947e-13 
  125       4.428166670755e-10       6.355036759270e-12       6.867249773737e-13 
  126       4.471609409238e-10       6.218304793597e-12       6.766154551093e-13 
  127       4.515165074681e-10       6.085303834084e-12       6.667270298759e-13 
  128       4.558821716506e-10       5.955730402112e-12       6.570471259852e-13 
  129       4.602567767424e-10       5.829310644675e-12       6.475640889148e-13 
  130       4.646396452221e-10       5.706006418753e-12       6.382764822301e-13 
  131       4.690301815547e-10       5.585830295159e-12       6.291847177079e-13 
  132       4.734277329873e-10       5.468780960486e-12       6.202881243626e-13 
  133       4.778315879551e-10       5.354842831380e-12       6.115849182211e-13 
  134       4.822409744871e-10       5.243985668802e-12       6.030721720971e-13 
  135       4.866550586111e-10       5.136164192300e-12       5.947457853658e-13 
  136       4.910729427598e-10       5.031317694272e-12       5.866004537383e-13 
  137       4.954936641762e-10       4.929369654239e-12       5.786296390366e-13 
  138       4.999161933193e-10       4.830227353111e-12       5.708255389678e-13 
  139       5.043394322694e-10       4.733781487452e-12       5.631790568987e-13 
  140       5.087622131339e-10       4.639905783752e-12       5.556797716307e-13 
  141       5.131832964531e-10       4.548456612690e-12       5.483159071741e-13 
  142       5.176013696052e-10       4.459272603407e-12       5.410743025227e-13 
  143       5.220150452124e-10       4.372174257770e-12       5.339403814286e-13 
  144       5.264229865494e-10       4.287001674849e-12       5.269015397716e-13 
  145       5.308243010699e-10       4.203732730280e-12       5.199577478520e-13 
  146       5.352181828264e-10       4.122375868783e-12       5.131119407510e-13 
  147       5.396037880937e-10       4.042932874915e-12       5.063666841022e-13 
  148       5.439802345045e-10       3.965398706358e-12       4.997241635082e-13 
  149       5.483466001848e-10       3.889761327213e-12       4.931861739562e-13 
  150       5.527019228898e-10       3.816001541292e-12       4.867541092339e-13 
  151       5.570451991384e-10       3.744092825410e-12       4.804289513453e-13 
  152       5.613753833500e-10       3.674001162675e-12       4.742112599272e-13 
  153       5.656913869788e-10       3.605684875784e-12       4.681011616645e-13 
  154       5.699920776500e-10       3.539094460308e-12       4.620983397066e-13 
  155       5.742762782952e-10       3.474172417992e-12       4.562020230828e-13 
  156       5.785427662875e-10       3.410853090042e-12       4.504109761189e-13 
  157       5.827902725774e-10       3.349062490418e-12       4.447234878528e-13 
  158       5.870174808281e-10       3.288718139126e-12       4.391373614503e-13 
  159       5.912230265511e-10       3.229728895510e-12       4.336499036213e-13 
  160       5.954054962416e-10       3.171994791543e-12       4.282579140355e-13 
  161       5.995635300626e-10       3.115427563936e-12       4.229584422471e-13 
  162       6.036961419176e-10       3.060014640896e-12       4.177511559107e-13 
  163       6.078024261624e-10       3.005760521622e-12       4.126361627402e-13 
  164       6.118814562171e-10       2.952666515513e-12       4.076132548390e-13 
  165       6.159322841781e-10       2.900730670691e-12       4.026819016478e-13 
  166       6.199539404298e-10       2.849947702525e-12       3.978412428912e-13 
  167       6.239454332567e-10       2.800308922155e-12       3.930900815251e-13 
  168       6.279057484551e-10       2.751802165021e-12       3.884268766838e-13 
  169       6.318338489454e-10       2.704411719381e-12       3.838497366271e-13 
  170       6.357286743834e-10       2.658118254839e-12       3.793564116874e-13 
  171       6.395891407726e-10       2.612898750872e-12       3.749442872172e-13 
  172       6.434141400762e-10       2.568726425349e-12       3.706103765356e-13 
  173       6.472025398287e-10       2.525570663061e-12       3.663513138762e-13 
  174       6.509531827479e-10       2.483396944240e-12       3.621633473335e-13 
  175       6.546648863467e-10       2.442166773090e-12       3.580423318108e-13 
  176       6.583364425455e-10       2.401837606307e-12       3.539837219666e-13 
  177       6.619666172833e-10       2.362362781603e-12       3.499825651623e-13 
  178       6.655541501303e-10       2.323691446234e-12       3.460334944091e-13 
  179       6.690977538994e-10       2.285768485524e-12       3.421307213152e-13 
  180       6.725961984341e-10       2.248545589039e-12       3.382692043433e-13 
  181       6.760485702292e-10       2.212015582083e-12       3.344482721594e-13 
  182       6.794540327497e-10       2.176180692250e-12       3.306682754247e-13 
  183       6.828117440320e-10       2.141041626773e-12       3.269294346621e-13 
  184       6.861208566057e-10       2.106597542069e-12       3.232318375331e-13 
  185       6.893805174155e-10       2.072846013285e-12       3.195754361131e-13 
  186       6.925898677434e-10       2.039783003850e-12       3.159600441685e-13 
  187       6.957480431305e-10       2.007402835018e-12       3.123853344319e-13 
  188       6.988541732987e-10       1.975698155417e-12       3.088508358786e-13 
  189       7.019073820733e-10       1.944659910595e-12       3.053559310026e-13 
  190       7.049067873040e-10       1.914277312569e-12       3.018998530928e-13 
  191       7.078515007878e-10       1.884537809372e-12       2.984816835091e-13 
  192       7.107406281903e-10       1.855427054598e-12       2.951003489582e-13 
  193       7.135732689677e-10       1.826928876951e-12       2.917546187703e-13 
  194       7.163485162891e-10       1.799025249792e-12       2.884431021744e-13 
  195       7.190654569580e-10       1.771696260689e-12       2.851642455751e-13 
  196       7.217231713348e-10       1.744920080957e-12       2.819163298284e-13 
  197       7.243207332580e-10       1.718672935212e-12       2.786974675177e-13 
  198       7.268572099667e-10       1.692929070916e-12       2.755056002302e-13 
  199       7.293316620224e-10       1.667660727924e-12       2.723384958326e-13 
  200       7.317431432309e-10       1.642838108031e-12       2.691937457475e-13 
  201       7.340907631367e-10       1.618435223961e-12       2.660694379263e-13 
  202       7.363738796432e-10       1.594447975254e-12       2.629662350028e-13 
  203       7.385919200171e-10       1.570877306333e-12       2.598854395039e-13 
  204       7.407443196588e-10       1.547723430125e-12       2.568283307732e-13 
  205       7.428305222092e-10       1.524985814983e-12       2.537961642439e-13 
  206       7.448499796567e-10       1.502663171611e-12       2.507901707120e-13 
  207       7.468021524437e-10       1.480753439987e-12       2.478115556092e-13 
  208       7.486865095741e-10       1.459253776287e-12       2.448614982765e-13 
  209       7.505025287196e-10       1.438160539812e-12       2.419411512368e-13 
  210       7.522496963268e-10       1.417469279908e-12       2.390516394686e-13 
  211       7.539275077244e-10       1.397174722890e-12       2.361940596785e-13 
  212       7.555354672292e-10       1.377270758971e-12       2.333694795748e-13 
  213       7.570730882541e-10       1.357750429182e-12       2.305789371406e-13 
  214       7.585398934140e-10       1.338605912295e-12       2.278234399066e-13 
  215       7.599354146331e-10       1.319828511750e-12       2.251039642247e-13 
  216       7.612591932521e-10       1.301408642579e-12       2.224214545408e-13 
  217       7.625107801343e-10       1.283335818326e-12       2.197768226678e-13 
  218       7.636897357731e-10       1.265598637978e-12       2.171709470593e-13 
  219       7.647956303987e-10       1.248184772881e-12       2.146046720822e-13 
  220       7.658280440848e-10       1.231080953669e-12       2.120788072900e-13 
  221       7.667865668557e-10       1.214272957190e-12       2.095941266961e-13 
  222       7.676707987932e-10       1.197745593423e-12       2.071513680466e-13 
  223       7.684803501432e-10       1.181482692408e-12       2.047512320939e-13 
  224       7.692148758901e-10       1.165470237832e-12       2.023942130932e-13 
  225       7.698741817274e-10       1.149706018703e-12       2.000800796929e-13 
  226       7.704581251079e-10       1.134190572990e-12       1.978083592577e-13 
  227       7.709665815772e-10       1.118924091191e-12       1.955785025217e-13 
  228       7.713994449621e-10       1.103906410749e-12       1.933898824603e-13 
  229       7.717566275599e-10       1.089137010468e-12       1.912417931609e-13 
  230       7.720380603271e-10       1.074615004931e-12       1.891334486945e-13 
  231       7.722436930685e-10       1.060339138912e-12       1.870639819870e-13 
  232       7.723734946262e-10       1.046307781796e-12       1.850324436903e-13 
  233       7.724274530683e-10       1.032518921994e-12       1.830378010538e-13 
  234       7.724055758781e-10       1.018970161357e-12       1.810789367955e-13 
  235       7.723078901428e-10       1.005658709596e-12       1.791546479734e-13 
  236       7.721344427426e-10       9.925813786945e-13       1.772636448569e-13 
  237       7.718853005396e-10       9.797345773256e-13       1.754045497976e-13 
